Alt,u,v,temp,bv2
14078.000,2.106,-0.035,0.964,0.000
14083.000,2.015,-0.076,0.965,0.000
14088.000,2.017,-0.080,0.966,0.000
14092.000,2.021,-0.376,0.967,0.000
14097.000,2.024,-0.380,0.968,0.000
14101.000,2.026,-0.384,0.969,0.000
14106.000,1.935,-0.423,0.970,0.000
14110.000,1.937,-0.427,0.971,0.000
14115.000,1.846,-0.466,0.973,0.000
14119.000,1.755,-0.505,0.974,0.000
14124.000,1.663,-0.543,0.975,0.000
14128.000,1.572,-0.582,0.976,0.000
14133.000,1.481,-0.620,0.978,0.000
14137.000,1.390,-0.659,0.979,0.000
14142.000,1.299,-0.698,0.981,0.000
14146.000,1.208,-0.736,0.982,0.000
14151.000,1.117,-0.775,0.983,-0.000
14155.000,1.027,-0.814,0.885,-0.000
14160.000,0.936,-0.853,0.887,0.001
14164.000,0.846,-0.891,0.888,0.001
14169.000,0.755,-0.930,0.890,0.000
14173.000,0.665,-0.969,0.892,0.000
14177.000,0.575,-1.008,0.893,0.000
14182.000,0.484,-1.046,0.895,0.000
14186.000,0.394,-1.085,0.897,0.000
14191.000,0.304,-1.124,0.899,0.000
14195.000,0.215,-1.163,0.901,0.000
14200.000,0.125,-1.201,0.903,0.000
14204.000,0.035,-1.240,0.905,0.000
14209.000,-0.136,-1.062,0.907,0.000
14213.000,-0.319,-1.139,0.909,0.000
14218.000,-0.408,-1.179,0.911,0.000
14222.000,-0.497,-1.220,0.914,0.000
14227.000,-0.586,-1.262,0.916,0.000
14231.000,-0.757,-1.097,0.918,0.000
14235.000,-0.845,-1.140,0.921,0.000
14240.000,-0.934,-1.183,0.923,0.000
14244.000,-1.022,-1.227,0.926,-0.000
14249.000,-1.111,-1.271,0.828,-0.000
14253.000,-1.281,-1.118,0.831,0.000
14258.000,-1.369,-1.163,0.834,0.000
14263.000,-1.456,-1.209,0.836,0.000
14267.000,-1.544,-1.255,0.839,0.000
14272.000,-1.714,-1.112,0.842,0.000
14276.000,-1.801,-1.160,0.845,0.000
14281.000,-1.888,-1.208,0.848,0.000
14285.000,-1.976,-1.257,0.851,0.000
14290.000,-2.145,-1.124,0.854,0.000
14294.000,-2.051,-1.090,0.857,0.000
14299.000,-2.133,-0.916,0.860,-0.000
14303.000,-2.130,-0.925,0.764,-0.000
14308.000,-2.216,-0.753,0.767,0.000
14313.000,-2.123,-0.716,0.770,0.000
14317.000,-2.213,-0.545,0.774,0.000
14322.000,-2.210,-0.554,0.777,0.000
14326.000,-2.217,-0.336,0.781,0.000
14331.000,-2.214,-0.345,0.685,0.000
14335.000,-2.312,-0.176,0.688,0.000
14340.000,-2.222,-0.135,0.692,0.000
14344.000,-2.325,0.033,0.696,0.000
14349.000,-2.322,0.024,0.700,-0.000
14353.000,-2.343,0.243,0.604,-0.000
14358.000,-2.341,0.233,0.608,0.000
14363.000,-2.451,0.399,0.612,0.000
14367.000,-2.365,0.444,0.617,-0.000
14372.000,-2.479,0.609,0.521,-0.000
14376.000,-2.477,0.599,0.525,0.000
14381.000,-2.513,0.819,0.530,-0.000
14385.000,-2.511,0.809,0.435,-0.000
14390.000,-2.428,0.857,0.439,0.000
14395.000,-2.551,1.020,0.444,-0.000
14399.000,-2.550,1.010,0.349,-0.000
14404.000,-2.596,1.231,0.354,-0.000
14409.000,-2.595,1.221,0.259,-0.000
14413.000,-2.593,1.211,0.264,0.000
14418.000,-2.644,1.432,0.269,-0.000
14423.000,-2.644,1.421,0.175,-0.000
14427.000,-2.643,1.411,0.180,0.000
14432.000,-2.699,1.632,0.185,-0.000
14437.000,-2.698,1.621,0.091,-0.000
14441.000,-2.836,1.778,0.096,0.000
14446.000,-2.758,1.831,0.102,-0.000
14450.000,-2.758,1.820,0.008,-0.000
14455.000,-2.824,2.041,0.014,0.000
14460.000,-2.823,2.030,0.020,-0.000
14464.000,-2.823,2.018,-0.074,-0.000
14469.000,-2.894,2.239,-0.068,0.000
14474.000,-2.893,2.227,-0.062,-0.000
14478.000,-2.818,2.282,-0.156,-0.000
14483.000,-2.969,2.437,-0.150,0.000
14488.000,-2.895,2.493,-0.143,-0.000
14492.000,-2.894,2.482,-0.237,-0.000
14497.000,-2.820,2.539,-0.230,0.001
14501.000,-2.976,2.694,-0.224,0.001
14506.000,-2.903,2.753,-0.217,-0.000
14511.000,-2.831,2.812,-0.310,-0.000
14515.000,-2.830,2.801,-0.304,0.000
14520.000,-2.921,3.028,-0.297,-0.000
14525.000,-2.921,3.018,-0.390,-0.000
14529.000,-2.850,3.079,-0.383,0.000
14534.000,-2.850,3.069,-0.376,0.000
14538.000,-2.948,3.296,-0.368,-0.000
14543.000,-2.949,3.287,-0.461,-0.000
14547.000,-2.879,3.350,-0.454,0.000
14552.000,-2.810,3.412,-0.446,0.000
14556.000,-2.985,3.569,-0.439,0.000
14561.000,-2.917,3.633,-0.431,-0.000
14565.000,-2.917,3.624,-0.524,-0.000
14570.000,-2.849,3.688,-0.516,0.000
14574.000,-2.781,3.753,-0.508,0.000
14579.000,-2.782,3.745,-0.500,0.000
14583.000,-2.714,3.810,-0.492,0.000
14588.000,-2.534,3.631,-0.484,-0.000
14592.000,-2.465,3.695,-0.576,-0.000
14597.000,-2.396,3.759,-0.568,0.000
14601.000,-2.396,3.751,-0.560,0.000
14606.000,-2.327,3.815,-0.552,0.000
14610.000,-2.258,3.879,-0.544,0.000
14615.000,-2.258,3.872,-0.536,-0.000
14619.000,-2.006,3.756,-0.627,-0.000
14624.000,-2.007,3.749,-0.619,0.000
14628.000,-1.936,3.812,-0.610,0.000
14633.000,-1.866,3.876,-0.602,0.000
14637.000,-1.866,3.869,-0.593,0.000
14642.000,-1.796,3.932,-0.584,0.000
14647.000,-1.726,3.996,-0.576,-0.000
14651.000,-1.541,3.801,-0.667,-0.000
14656.000,-1.470,3.863,-0.658,0.000
14660.000,-1.470,3.857,-0.649,0.000
14665.000,-1.470,3.850,-0.641,0.000
14669.000,-1.287,3.651,-0.632,0.000
14674.000,-1.214,3.712,-0.623,0.000
14679.000,-1.213,3.706,-0.614,-0.000
14683.000,-1.213,3.699,-0.705,-0.000
14688.000,-1.032,3.496,-0.696,0.000
14692.000,-1.031,3.489,-0.686,0.000
14697.000,-1.030,3.483,-0.677,0.000
14702.000,-0.954,3.544,-0.668,-0.000
14706.000,-0.775,3.336,-0.759,-0.000
14711.000,-0.773,3.330,-0.749,0.000
14715.000,-0.772,3.324,-0.740,0.000
14720.000,-0.595,3.113,-0.731,0.000
14725.000,-0.517,3.172,-0.721,-0.000
14729.000,-0.515,3.166,-0.812,-0.000
14734.000,-0.512,3.160,-0.802,0.000
14738.000,-0.338,2.945,-0.792,0.000
14743.000,-0.258,3.002,-0.783,0.000
14748.000,-0.255,2.997,-0.773,-0.000
14752.000,-0.251,2.991,-0.863,-0.000
14757.000,-0.326,2.922,-0.853,0.000
14762.000,-0.322,2.916,-0.843,0.000
14766.000,-0.318,2.911,-0.833,-0.000
14771.000,-0.313,2.905,-0.923,-0.000
14775.000,-0.309,2.899,-0.913,0.000
14780.000,-0.303,2.893,-0.903,0.000
14785.000,-0.376,2.825,-0.893,-0.000
14789.000,-0.370,2.819,-0.982,-0.000
14794.000,-0.364,2.813,-0.972,0.000
14798.000,-0.358,2.807,-0.961,0.000
14803.000,-0.351,2.802,-0.951,-0.000
14808.000,-0.344,2.796,-1.040,-0.000
14813.000,-0.414,2.727,-1.029,0.000
14817.000,-0.407,2.721,-1.018,-0.000
14822.000,-0.399,2.715,-1.108,-0.000
14827.000,-0.390,2.709,-1.097,0.000
14832.000,-0.382,2.703,-1.086,0.000
14836.000,-0.451,2.634,-1.074,-0.000
14841.000,-0.442,2.627,-1.163,-0.000
14846.000,-0.433,2.621,-1.152,0.000
14851.000,-0.424,2.615,-1.141,-0.000
14855.000,-0.416,2.609,-1.229,-0.000
14860.000,-0.407,2.602,-1.218,0.000
14865.000,-0.398,2.596,-1.206,0.000
14870.000,-0.223,2.382,-1.195,0.000
14874.000,-0.293,2.314,-1.183,-0.000
14879.000,-0.284,2.308,-1.271,-0.000
14884.000,-0.275,2.302,-1.259,0.000
14889.000,-0.266,2.295,-1.247,0.000
14893.000,-0.257,2.289,-1.235,0.000
14898.000,-0.247,2.282,-1.223,-0.000
14903.000,-0.078,2.067,-1.311,-0.000
14907.000,-0.068,2.060,-1.298,0.000
14912.000,-0.139,1.993,-1.286,0.000
14917.000,-0.130,1.987,-1.274,0.000
14922.000,-0.120,1.980,-1.261,-0.000
14926.000,-0.111,1.974,-1.349,-0.000
14931.000,-0.101,1.967,-1.336,0.000
14936.000,0.065,1.750,-1.323,0.000
14941.000,0.075,1.743,-1.310,0.000
14945.000,0.085,1.736,-1.298,-0.000
14950.000,0.176,1.789,-1.385,-0.000
14955.000,0.187,1.782,-1.372,0.000
14959.000,0.198,1.775,-1.359,0.000
14964.000,0.362,1.553,-1.346,0.000
14969.000,0.373,1.547,-1.332,-0.000
14973.000,0.467,1.597,-1.419,-0.000
14978.000,0.479,1.590,-1.406,0.000
14983.000,0.491,1.582,-1.393,0.000
14987.000,0.503,1.575,-1.379,0.000
14992.000,0.749,1.405,-1.366,0.000
14997.000,0.762,1.398,-1.353,0.000
15001.000,0.775,1.390,-1.339,-0.000
15006.000,0.788,1.383,-1.426,-0.000
15011.000,0.885,1.431,-1.412,0.000
15015.000,0.898,1.423,-1.399,0.000
15020.000,0.913,1.416,-1.385,0.000
15025.000,1.159,1.238,-1.372,0.000
15030.000,1.174,1.230,-1.358,-0.000
15034.000,1.189,1.222,-1.445,-0.000
15039.000,1.350,0.985,-1.431,0.000
15044.000,1.366,0.977,-1.418,0.000
15048.000,1.382,0.969,-1.404,0.000
15053.000,1.539,0.730,-1.391,0.000
15058.000,1.555,0.721,-1.377,0.000
15062.000,1.572,0.712,-1.364,0.000
15067.000,1.726,0.470,-1.350,-0.000
15072.000,1.742,0.462,-1.437,-0.000
15076.000,1.980,0.266,-1.423,0.000
15081.000,1.997,0.257,-1.409,0.000
15086.000,2.014,0.248,-1.396,0.000
15090.000,2.161,-0.001,-1.382,0.000
15095.000,2.179,-0.010,-1.369,0.000
