Alt,u,v,temp,bv2
27273.000,-0.917,-2.476,0.308,-0.053
27279.000,-0.808,-2.466,0.298,-0.055
27285.000,-0.599,-2.441,0.288,-0.057
27291.000,-0.490,-2.431,0.278,-0.057
27297.000,-0.416,-2.151,0.268,-0.060
27303.000,-0.306,-2.142,0.258,-0.063
27309.000,-0.197,-2.133,0.248,-0.066
27315.000,-0.018,-1.849,0.238,0.373
27320.000,0.091,-1.843,0.328,0.270
27326.000,0.200,-1.836,0.318,-0.051
27332.000,0.284,-1.570,0.307,-0.053
27338.000,0.393,-1.565,0.297,-0.056
27344.000,0.482,-1.305,0.287,-0.058
27350.000,0.591,-1.302,0.277,-0.060
27356.000,0.684,-1.046,0.267,-0.061
27362.000,0.792,-1.045,0.257,-0.064
27368.000,0.890,-0.795,0.246,-0.068
27374.000,0.998,-0.795,0.236,-0.071
27380.000,1.106,-0.796,0.226,-0.074
27386.000,1.207,-0.553,0.216,-0.078
27392.000,1.315,-0.555,0.205,-0.080
27398.000,1.420,-0.317,0.195,-0.084
27404.000,1.527,-0.322,0.185,-0.090
27410.000,1.635,-0.089,0.175,-0.096
27416.000,1.742,-0.095,0.165,-0.103
27422.000,1.854,0.132,0.154,-0.111
27428.000,1.760,0.131,0.144,-0.118
27434.000,1.666,0.130,0.133,-0.127
27440.000,1.571,0.128,0.123,-0.140
27446.000,1.477,0.127,0.112,-0.152
27452.000,1.382,0.125,0.102,-0.167
27458.000,1.286,0.124,0.091,-0.186
27464.000,1.191,0.122,0.081,-0.209
27470.000,1.095,0.121,0.071,-0.241
27476.000,0.999,0.119,0.060,1.074
27482.000,0.904,0.117,0.150,0.431
27488.000,0.808,0.115,0.139,-0.124
27494.000,0.712,0.113,0.129,-0.133
27500.000,0.627,0.368,0.118,-0.143
27506.000,0.531,0.368,0.108,-0.157
27512.000,0.435,0.368,0.097,-0.176
27518.000,0.339,0.368,0.087,-0.197
27524.000,0.243,0.368,0.076,-0.225
27530.000,0.147,0.369,0.066,-0.260
27536.000,0.051,0.370,0.055,-0.306
27542.000,-0.045,0.370,0.045,-0.377
27548.000,-0.140,0.371,0.035,-0.494
27554.000,-0.136,0.366,0.024,-0.710
27560.000,-0.132,0.362,0.014,-1.260
27566.000,-0.127,0.358,0.003,-5.490
27572.000,-0.123,0.354,-0.007,2.339
27578.000,-0.218,0.356,-0.018,1.069
27583.000,-0.214,0.352,-0.028,0.673
27589.000,-0.209,0.348,-0.039,0.440
27595.000,-0.188,0.617,-0.049,0.346
27601.000,-0.183,0.614,-0.059,0.286
27607.000,-0.278,0.618,-0.070,0.244
27613.000,-0.273,0.616,-0.080,0.213
27619.000,-0.268,0.614,-0.090,0.187
27625.000,-0.263,0.612,-0.101,0.168
27631.000,-0.258,0.610,-0.111,0.152
27637.000,-0.352,0.616,-0.121,0.140
27643.000,-0.347,0.614,-0.132,0.128
27649.000,-0.342,0.613,-0.142,0.119
27655.000,-0.337,0.613,-0.152,0.122
27660.000,-0.332,0.612,-0.162,0.114
27666.000,-0.405,0.896,-0.172,-0.378
27672.000,-0.400,0.896,-0.082,-0.793
27678.000,-0.396,0.896,-0.092,0.178
27684.000,-0.490,0.905,-0.102,0.162
27690.000,-0.485,0.906,-0.113,0.147
27696.000,-0.480,0.907,-0.123,0.133
27702.000,-0.575,0.917,-0.133,0.124
27708.000,-0.543,1.198,-0.143,0.114
27714.000,-0.538,1.201,-0.153,0.106
27720.000,-0.633,1.214,-0.162,0.101
27726.000,-0.628,1.217,-0.172,0.094
27732.000,-0.623,1.221,-0.182,0.098
27737.000,-0.718,1.235,-0.192,0.093
27743.000,-0.713,1.239,-0.202,0.079
27749.000,-0.708,1.244,-0.212,0.075
27755.000,-0.671,1.532,-0.221,0.072
27761.000,-0.765,1.549,-0.231,0.078
27766.000,-0.760,1.554,-0.241,0.075
27772.000,-0.756,1.559,-0.250,-0.264
27778.000,-0.850,1.577,-0.160,-0.413
27784.000,-0.845,1.583,-0.170,0.093
27790.000,-0.803,1.874,-0.179,0.097
27795.000,-0.798,1.881,-0.189,0.093
27801.000,-0.793,1.887,-0.198,0.080
27807.000,-0.789,1.894,-0.208,0.075
27813.000,-0.741,2.186,-0.217,-0.304
27819.000,-0.737,2.193,-0.127,-0.450
27824.000,-0.732,2.200,-0.136,0.126
27830.000,-0.727,2.207,-0.146,0.106
27836.000,-0.675,2.499,-0.155,0.101
27842.000,-0.670,2.506,-0.165,0.094
27848.000,-0.665,2.513,-0.174,-0.517
27853.000,-0.660,2.520,-0.083,-1.078
27859.000,-0.602,2.810,-0.093,0.165
27865.000,-0.597,2.818,-0.102,0.149
27871.000,-0.592,2.825,-0.111,0.138
27877.000,-0.529,3.114,-0.121,0.128
27883.000,-0.523,3.121,-0.130,-0.692
27888.000,-0.517,3.128,-0.039,-2.288
27894.000,-0.511,3.136,-0.049,0.311
27900.000,-0.504,3.142,-0.058,0.260
27906.000,-0.596,3.170,-0.067,0.223
27912.000,-0.687,3.197,-0.076,-1.184
27917.000,-0.680,3.204,0.014,6.234
27923.000,-0.771,3.231,0.005,-2.758
27929.000,-0.862,3.258,-0.004,4.009
27935.000,-0.855,3.265,-0.013,1.163
27941.000,-0.945,3.291,-0.022,0.675
27947.000,-1.036,3.318,-0.031,-2.923
27952.000,-1.088,3.031,0.060,1.510
27958.000,-1.178,3.055,0.051,-0.290
27964.000,-1.269,3.078,0.042,-0.350
27970.000,-1.261,3.082,0.033,-0.447
27976.000,-1.351,3.105,0.024,-0.684
27981.000,-1.441,3.127,0.015,3.900
27987.000,-1.531,3.150,0.106,0.635
27993.000,-1.523,3.152,0.097,-0.149
27999.000,-1.612,3.174,0.088,-0.165
28005.000,-1.702,3.195,0.079,-0.182
28011.000,-1.693,3.197,0.070,1.291
28016.000,-1.685,3.199,0.162,0.563
28022.000,-1.676,3.200,0.153,-0.094
28028.000,-1.667,3.201,0.144,-0.099
28034.000,-1.714,2.896,0.135,-0.105
28040.000,-1.705,2.897,0.126,0.532
28046.000,-1.597,2.879,0.217,0.268
28051.000,-1.588,2.879,0.209,-0.076
28057.000,-1.578,2.879,0.200,-0.072
28063.000,-1.568,2.878,0.191,-0.074
28069.000,-1.559,2.877,0.182,0.370
28075.000,-1.549,2.876,0.274,0.214
28080.000,-1.539,2.874,0.265,-0.060
28086.000,-1.528,2.872,0.256,-0.056
28092.000,-1.419,2.852,0.247,0.272
28098.000,-1.409,2.849,0.339,0.199
28104.000,-1.398,2.845,0.330,-0.043
28110.000,-1.387,2.842,0.321,-0.049
28115.000,-1.376,2.838,0.312,0.187
28121.000,-1.365,2.834,0.403,0.167
28127.000,-1.353,2.830,0.394,-0.037
28133.000,-1.144,2.790,0.385,0.174
28139.000,-1.034,2.768,0.476,0.141
28145.000,-0.923,2.745,0.467,-0.033
28150.000,-0.813,2.722,0.458,-0.034
28156.000,-0.702,2.699,0.449,0.149
28162.000,-0.591,2.675,0.540,0.124
28168.000,-0.381,2.634,0.531,-0.028
28174.000,-0.269,2.610,0.522,-0.031
28179.000,-0.157,2.586,0.513,0.113
28185.000,-0.046,2.562,0.604,0.112
28191.000,0.066,2.538,0.595,-0.024
28197.000,0.277,2.496,0.586,-0.026
28203.000,0.389,2.471,0.577,0.116
28209.000,0.502,2.447,0.668,0.086
28214.000,0.615,2.422,0.658,-0.025
28220.000,0.727,2.397,0.649,-0.023
28226.000,0.840,2.373,0.640,-0.022
28232.000,1.051,2.330,0.631,0.107
28238.000,1.164,2.305,0.722,0.080
28243.000,1.277,2.280,0.712,-0.023
28249.000,1.248,2.011,0.703,-0.021
28255.000,1.263,2.003,0.694,-0.022
28261.000,1.238,1.732,0.685,0.097
28267.000,1.218,1.461,0.776,0.087
28273.000,1.233,1.453,0.766,-0.018
28279.000,1.218,1.181,0.757,-0.020
28285.000,1.233,1.172,0.748,-0.023
28290.000,1.222,0.900,0.738,-0.023
28296.000,1.217,0.627,0.729,0.091
28302.000,1.232,0.618,0.819,0.081
28308.000,1.230,0.345,0.810,-0.018
28314.000,1.134,0.074,0.801,-0.018
28320.000,1.149,0.066,0.791,-0.019
28326.000,1.157,-0.210,0.782,-0.020
28332.000,1.172,-0.218,0.773,-0.020
28338.000,1.185,-0.494,0.763,-0.020
28344.000,1.202,-0.770,0.754,0.119
28349.000,1.116,-0.780,0.844,0.108
28355.000,1.138,-1.058,0.835,-0.017
28361.000,1.152,-1.067,0.826,-0.019
28367.000,0.978,-1.354,0.816,-0.019
28373.000,0.892,-1.368,0.807,-0.019
28379.000,0.806,-1.382,0.797,-0.019
28385.000,0.720,-1.396,0.788,-0.019
28391.000,0.534,-1.416,0.779,-0.018
28397.000,0.448,-1.430,0.769,-0.018
28403.000,0.361,-1.444,0.760,-0.020
28409.000,0.175,-1.464,0.751,0.120
28414.000,0.088,-1.478,0.841,0.107
28420.000,0.001,-1.493,0.832,-0.018
28426.000,-0.168,-1.807,0.823,-0.019
28432.000,-0.255,-1.823,0.813,-0.018
28438.000,-0.342,-1.840,0.804,-0.018
28444.000,-0.430,-1.856,0.794,-0.019
28450.000,-0.617,-1.880,0.785,-0.020
28456.000,-0.705,-1.897,0.775,-0.020
28462.000,-0.793,-1.914,0.766,-0.020
28468.000,-0.981,-1.938,0.756,-0.021
28474.000,-1.069,-1.955,0.747,-0.019
28480.000,-1.157,-1.972,0.737,-0.018
28487.000,-1.246,-1.989,0.728,-0.020
28493.000,-1.334,-2.006,0.718,-0.022
28499.000,-1.323,-2.016,0.709,-0.022
28505.000,-1.412,-2.033,0.699,-0.022
28511.000,-1.501,-2.051,0.690,-0.021
28517.000,-1.491,-2.061,0.680,-0.022
28523.000,-1.580,-2.079,0.671,-0.023
28529.000,-1.670,-2.096,0.661,-0.024
28535.000,-1.680,-1.783,0.651,-0.024
28541.000,-1.770,-1.800,0.642,-0.025
28547.000,-1.860,-1.816,0.632,-0.025
28553.000,-1.850,-1.828,0.622,-0.024
28559.000,-1.941,-1.846,0.613,-0.023
28566.000,-2.031,-1.863,0.603,-0.025
28572.000,-2.022,-1.876,0.593,-0.027
28578.000,-2.114,-1.894,0.583,-0.027
28584.000,-2.205,-1.912,0.574,-0.028
28590.000,-2.197,-1.925,0.564,-0.028
28596.000,-2.289,-1.944,0.554,-0.027
28602.000,-2.396,-1.625,0.545,-0.028
28608.000,-2.489,-1.643,0.535,-0.030
28614.000,-2.581,-1.660,0.525,-0.031
28620.000,-2.674,-1.679,0.515,-0.031
